4,720640,720896
4,709632,709888
4,9216,9472
4,15616,15872
4,21504,21760
4,155392,155648
4,678144,678400
4,5888,6144
4,703488,703744
4,7168,7424
4,7424,7680
4,673280,673536
4,14592,14848
4,1280,1536
4,20480,20736
4,15104,15360
4,9984,10240
4,570112,570368
4,709120,709376
4,6656,6912
4,13824,14080
4,273152,273408
4,1536,1792
4,4608,4864
4,450816,451072
4,711168,711424
4,306944,307200
4,17152,17408
4,263680,263936
4,442368,442624
4,244224,244480
4,701952,702208
4,185088,185344
4,9472,9728
4,1024,1280
4,673792,674048
4,569600,569856
4,382976,383232
4,19200,19456
4,126464,126720
4,177920,178176
4,18176,18432
4,243456,243712
4,424704,424960
4,470272,470528
4,3584,3840
4,499456,499712
4,339712,339968
4,98560,98816
4,685568,685824
4,502784,503040
4,141824,142080
4,692480,692736
4,710912,711168
4,5120,5376
4,583168,583424
4,441856,442112
4,427520,427776
4,345856,346112
4,429312,429568
4,434432,434688
4,99840,100096
4,78848,79104
4,699904,700160
4,4096,4352
4,430592,430848
4,21760,22016
4,64768,65024
4,574976,575232
4,419840,420096
4,270080,270336
4,147968,148224
4,163584,163840
4,146944,147200
4,673024,673280
4,369408,369664
4,320000,320256
4,65536,65792
4,16384,16640
4,449024,449280
4,134656,134912
4,130048,130304
4,419584,419840
4,511744,512000
4,659968,660224
4,175616,175872
4,302336,302592
4,77312,77568
4,202496,202752
4,376832,377088
4,344832,345088
4,459776,460032
4,264960,265216
4,646912,647168
4,433152,433408
4,22272,22528
4,581120,581376
4,708096,708352
4,650240,650496
4,176128,176384
4,663552,663808
4,634880,635136
4,13312,13568
4,184832,185088
4,323328,323584
4,380928,381184
4,12288,12544
4,578560,578816
4,208896,209152
4,3328,3584
4,574720,574976
4,180224,180480
4,567296,567552
4,357120,357376
4,575488,575744
4,333568,333824
4,4864,5120
4,532736,532992
4,674304,674560
4,537856,538112
4,507136,507392
4,647168,647424
4,16896,17152
4,602368,602624
4,427264,427520
4,578048,578304
4,549376,549632
4,101120,101376
4,327936,328192
4,300032,300288
4,89600,89856
4,654848,655104
4,426240,426496
4,605952,606208
4,211200,211456
4,576512,576768
4,181248,181504
4,114688,114944
4,393472,393728
4,136704,136960
4,17664,17920
4,8960,9216
4,544000,544256
4,145664,145920
4,560128,560384
4,285952,286208
4,612864,613120
4,301568,301824
4,169728,169984
4,84480,84736
4,700160,700416
4,682752,683008
4,338176,338432
4,288000,288256
4,568576,568832
4,159232,159488
4,527872,528128
4,593920,594176
4,648960,649216
4,401664,401920
4,218624,218880
4,525312,525568
4,448256,448512
4,457984,458240
4,613376,613632
4,688128,688384
4,499968,500224
4,286976,287232
4,524800,525056
4,307456,307712
4,354816,355072
4,629760,630016
4,94720,94976
4,302592,302848
4,505344,505600
4,371456,371712
4,447744,448000
4,30720,30976
4,269312,269568
4,666368,666624
4,119040,119296
4,347904,348160
4,296448,296704
4,390656,390912
4,348160,348416
4,158720,158976
4,124672,124928
4,643072,643328
4,481536,481792
4,152576,152832
4,70912,71168
4,265984,266240
4,675328,675584
4,582912,583168
4,589056,589312
4,465152,465408
4,389632,389888
4,446976,447232
4,206848,207104
4,252416,252672
4,171520,171776
4,684800,685056
4,415744,416000
4,685824,686080
4,404480,404736
4,286720,286976
4,234752,235008
4,576256,576512
4,284160,284416
4,30208,30464
4,11776,12032
4,322304,322560
4,592384,592640
4,659200,659456
4,167936,168192
4,534016,534272
4,580864,581120
4,376064,376320
4,324864,325120
4,150016,150272
4,553984,554240
4,425216,425472
4,29184,29440
4,23296,23552
4,231424,231680
4,467712,467968
4,59136,59392
4,171776,172032
4,350720,350976
4,212480,212736
4,465920,466176
4,123392,123648
4,377344,377600
4,606208,606464
4,244736,244992
4,352768,353024
4,402944,403200
4,33536,33792
4,395008,395264
4,102400,102656
4,366592,366848
4,578304,578560
4,338688,338944
4,689664,689920
4,20736,20992
4,238080,238336
4,128512,128768
4,645376,645632
4,451840,452096
4,295936,296192
4,109568,109824
4,437760,438016
4,552448,552704
4,554496,554752
4,19456,19712
4,368896,369152
4,71424,71680
4,364288,364544
4,550656,550912
4,553472,553728
4,566784,567040
4,453376,453632
4,357888,358144
4,273408,273664
4,563200,563456
4,679936,680192
4,426496,426752
4,632064,632320
4,384000,384256
4,343808,344064
4,5376,5632
4,581888,582144
4,568832,569088
4,529408,529664
4,447232,447488
4,518912,519168
4,255232,255488
4,374016,374272
4,228352,228608
4,278016,278272
4,624384,624640
4,164096,164352
4,456448,456704
4,431360,431616
4,171008,171264
4,120320,120576
4,146432,146688
4,328192,328448
4,9728,9984
4,569088,569344
4,57600,57856
4,441088,441344
4,220160,220416
4,565248,565504
4,258560,258816
4,180480,180736
4,478720,478976
4,48640,48896
4,570368,570624
4,94464,94720
4,189184,189440
4,422656,422912
4,7936,8192
4,24576,24832
4,254208,254464
4,577280,577536
4,661504,661760
4,388352,388608
4,115200,115456
4,417024,417280
4,38144,38400
4,65024,65280
4,37632,37888
4,133632,133888
4,697600,697856
4,490240,490496
4,279296,279552
4,587520,587776
4,326912,327168
4,434176,434432
4,669952,670208
4,483840,484096
4,46336,46592
4,119552,119808
4,533760,534016
4,17408,17664
4,557824,558080
4,375040,375296
4,534272,534528
4,409088,409344
4,541184,541440
4,325376,325632
4,328960,329216
4,93440,93696
4,256768,257024
4,406016,406272
4,425472,425728
4,584192,584448
4,566272,566528
4,128256,128512
4,768,1024
4,336384,336640
4,696576,696832
4,347648,347904
4,154368,154624
4,198400,198656
4,549888,550144
4,145408,145664
4,289792,290048
4,223232,223488
4,350464,350720
4,645120,645376
4,536576,536832
4,92160,92416
4,10240,10496
4,11008,11264
4,526592,526848
4,670720,670976
4,271872,272128
4,537600,537856
4,665856,666112
4,282880,283136
4,598784,599040
4,644096,644352
4,206080,206336
4,10496,10752
4,53504,53760
4,579840,580096
4,289024,289280
4,88064,88320
4,680448,680704
4,491520,491776
4,397568,397824
4,160512,160768
4,601856,602112
4,663296,663552
4,476416,476672
4,199168,199424
4,237568,237824
4,51200,51456
4,125440,125696
4,380160,380416
4,19712,19968
4,436224,436480
4,193024,193280
4,270592,270848
4,695552,695808
4,244480,244736
4,580608,580864
4,287744,288000
4,485376,485632
4,465664,465920
4,354304,354560
4,82688,82944
4,114432,114688
4,446464,446720
4,336128,336384
4,214528,214784
4,213504,213760
4,77824,78080
4,172032,172288
4,67840,68096
4,594944,595200
4,547584,547840
4,215808,216064
4,683008,683264
4,111104,111360
4,572160,572416
4,602112,602368
4,642048,642304
4,227328,227584
4,41472,41728
4,423168,423424
4,61440,61696
4,190208,190464
4,534784,535040
4,510720,510976
4,162048,162304
4,134144,134400
4,203776,204032
4,116480,116736
4,428800,429056
4,657920,658176
4,448000,448256
4,619008,619264
4,223744,224000
4,312576,312832
4,498432,498688
4,382720,382976
4,400128,400384
4,582144,582400
4,650496,650752
4,214016,214272
4,666624,666880
4,436480,436736
4,214272,214528
4,201984,202240
4,281344,281600
4,260096,260352
4,542720,542976
4,599040,599296
4,32512,32768
4,298752,299008
4,513280,513536
4,79616,79872
4,620544,620800
4,685056,685312
4,576000,576256
4,229888,230144
4,262144,262400
4,427008,427264
4,480256,480512
4,272896,273152
4,371712,371968
4,93184,93440
4,697344,697600
4,641024,641280
4,418048,418304
4,397056,397312
4,320256,320512
4,272128,272384
4,178944,179200
4,596736,596992
4,366336,366592
4,139776,140032
4,482048,482304
4,504320,504576
4,183040,183296
4,572928,573184
4,424192,424448
4,108032,108288
5,19200,19456
5,17408,17664
5,493312,493568
5,494080,494336
5,502528,502784
5,505856,506112
5,507904,508160
5,18688,18944
5,6144,6400
5,427264,427520
5,512,768
5,22272,22528
5,498432,498688
5,496128,496384
5,16896,17152
5,13568,13824
5,12800,13056
5,1536,1792
5,509440,509696
5,20992,21248
5,486144,486400
5,477184,477440
5,504320,504576
5,4864,5120
5,25088,25344
5,503552,503808
5,498176,498432
5,7680,7936
5,24320,24576
5,507648,507904
5,484864,485120
5,4608,4864
5,2560,2816
5,17664,17920
5,22784,23040
5,260864,261120
5,400896,401152
5,510464,510720
5,489216,489472
5,492032,492288
5,10496,10752
5,512256,512512
5,499712,499968
5,487424,487680
5,19968,20224
5,121344,121600
5,477696,477952
5,16640,16896
5,490752,491008
5,91904,92160
5,495616,495872
5,490240,490496
5,212992,213248
5,246272,246528
5,675328,675584
5,1280,1536
5,11776,12032
5,84224,84480
5,492544,492800
5,497408,497664
5,6656,6912
5,462336,462592
5,495104,495360
5,126976,127232
5,18944,19200
5,0,256
5,502272,502528
5,1792,2048
5,16384,16640
5,4352,4608
5,504832,505088
5,489728,489984
5,508672,508928
5,505344,505600
5,476672,476928
5,493056,493312
5,317696,317952
5,407296,407552
5,492800,493056
5,26880,27136
5,8704,8960
5,22528,22784
5,16128,16384
5,181504,181760
5,496640,496896
5,226304,226560
5,173056,173312
5,252160,252416
5,479488,479744
5,2048,2304
5,499200,499456
5,15872,16128
5,24576,24832
5,13056,13312
5,300288,300544
5,14080,14336
5,109568,109824
5,5376,5632
5,65024,65280
5,290816,291072
5,497920,498176
5,289280,289536
5,262656,262912
5,11264,11520
5,7424,7680
5,568576,568832
5,434432,434688
5,465408,465664
5,498688,498944
5,675584,675840
5,502784,503040
5,354048,354304
5,478464,478720
5,498944,499200
5,509952,510208
5,416000,416256
5,178688,178944
5,8960,9216
5,506624,506880
5,55552,55808
5,202240,202496
5,149760,150016
5,192000,192256
5,432640,432896
5,497664,497920
5,2816,3072
5,184832,185088
5,12288,12544
5,264704,264960
5,676096,676352
5,9472,9728
5,326400,326656
5,20480,20736
5,501504,501760
5,517632,517888
5,329216,329472
5,116992,117248
5,483328,483584
5,230912,231168
5,369920,370176
5,47616,47872
5,501248,501504
5,684032,684288
5,14848,15104
5,183552,183808
5,263424,263680
5,23552,23808
5,67072,67328
5,508416,508672
5,438784,439040
5,478208,478464
5,360448,360704
5,333568,333824
5,12544,12800
5,432384,432640
5,504064,504320
5,585216,585472
5,93952,94208
5,123904,124160
5,516608,516864
5,88832,89088
5,53248,53504
5,78336,78592
5,497152,497408
5,506368,506624
5,237824,238080
5,456192,456448
5,52992,53248
5,481536,481792
5,20736,20992
5,272384,272640
5,632832,633088
5,176384,176640
5,137472,137728
5,446464,446720
5,768,1024
5,329472,329728
5,130304,130560
5,146688,146944
5,440832,441088
5,483840,484096
5,182528,182784
5,150784,151040
5,248832,249088
5,564992,565248
5,537088,537344
5,62976,63232
5,84736,84992
5,18176,18432
5,397568,397824
5,480512,480768
5,295936,296192
5,351744,352000
5,170240,170496
5,294656,294912
5,496384,496640
5,433664,433920
5,184064,184320
5,526080,526336
5,277760,278016
5,75264,75520
5,262912,263168
5,247808,248064
5,538368,538624
5,684544,684800
5,299008,299264
5,301568,301824
5,674304,674560
5,24064,24320
5,428288,428544
5,89856,90112
5,177664,177920
5,340224,340480
5,66048,66304
5,171776,172032
5,166400,166656
5,117248,117504
5,483584,483840
5,312320,312576
5,317440,317696
5,384000,384256
5,438528,438784
5,627456,627712
5,344576,344832
5,126720,126976
5,65280,65536
5,365056,365312
5,184576,184832
5,510720,510976
5,513024,513280
5,298752,299008
5,325120,325376
5,275200,275456
5,382208,382464
5,503296,503552
5,424704,424960
5,504576,504832
5,552192,552448
5,570624,570880
5,166912,167168
5,343296,343552
5,332032,332288
5,493568,493824
5,480768,481024
5,323072,323328
5,105216,105472
5,412672,412928
5,517888,518144
5,336896,337152
5,417024,417280
5,227584,227840
5,96256,96512
5,178176,178432
5,253184,253440
5,479744,480000
5,229376,229632
5,480256,480512
5,256,512
5,207872,208128
5,188672,188928
5,370432,370688
5,79872,80128
5,412416,412672
5,380928,381184
5,119808,120064
5,540672,540928
5,66304,66560
5,136192,136448
5,142592,142848
5,194304,194560
5,645376,645632
5,96512,96768
5,244224,244480
5,551936,552192
5,370688,370944
5,219648,219904
5,272896,273152
5,444160,444416
5,143872,144128
5,289792,290048
5,118272,118528
5,426752,427008
5,174592,174848
5,559360,559616
5,124672,124928
5,324352,324608
5,253952,254208
5,134656,134912
5,388608,388864
5,155392,155648
5,547072,547328
5,467200,467456
5,399360,399616
5,676608,676864
5,210944,211200
5,411648,411904
5,348416,348672
5,377856,378112
5,467968,468224
5,108800,109056
5,337664,337920
5,198912,199168
5,415744,416000
5,508160,508416
5,534272,534528
5,21760,22016
5,427008,427264
5,9984,10240
5,412160,412416
5,275968,276224
5,666112,666368
5,436736,436992
5,425728,425984
5,650752,651008
5,112384,112640
5,267264,267520
5,381952,382208
5,274688,274944
5,298496,298752
5,200192,200448
5,43520,43776
5,14592,14848
5,252928,253184
5,41216,41472
5,85760,86016
5,206848,207104
5,486656,486912
5,433152,433408
5,284416,284672
5,240384,240640
5,265216,265472
5,162560,162816
5,414976,415232
5,136448,136704
5,517376,517632
5,172288,172544
5,139520,139776
5,324864,325120
5,300032,300288
5,435968,436224
5,297472,297728
5,528640,528896
5,316672,316928
5,173312,173568
5,545280,545536
5,165888,166144
5,76032,76288
5,271616,271872
5,466688,466944
5,338944,339200
5,238336,238592
5,224512,224768
5,677632,677888
5,561664,561920
5,555776,556032
5,260096,260352
5,397056,397312
5,354560,354816
5,422656,422912
5,444672,444928
5,405248,405504
5,292608,292864
5,676864,677120
5,165376,165632
5,103168,103424
5,177408,177664
5,467712,467968
5,260352,260608
5,374016,374272
5,73728,73984
5,418304,418560
5,213248,213504
5,138752,139008
5,200960,201216
5,88320,88576
5,318720,318976
5,244480,244736
5,228352,228608
5,323584,323840
5,676352,676608
5,287488,287744
5,175872,176128
5,378624,378880
5,409088,409344
5,265728,265984
5,243712,243968
5,368896,369152
5,413440,413696
5,130816,131072
5,410368,410624
5,226816,227072
5,139264,139520
5,434688,434944
5,376064,376320
5,248064,248320
5,429056,429312
5,194816,195072
5,223232,223488
5,413696,413952
6,269312,269568
6,628736,628992
6,673280,673536
6,7424,7680
6,213248,213504
6,651008,651264
6,427776,428032
6,391936,392192
6,178432,178688
6,332032,332288
6,377088,377344
6,186368,186624
6,417792,418048
6,512768,513024
6,277248,277504
6,338688,338944
6,583936,584192
6,413184,413440
6,324096,324352
6,208640,208896
6,463872,464128
6,9728,9984
6,345600,345856
6,217600,217856
6,194304,194560
6,447488,447744
6,479232,479488
6,407296,407552
6,218368,218624
6,205056,205312
6,213760,214016
6,193792,194048
6,676352,676608
6,411392,411648
6,633856,634112
6,541696,541952
6,450304,450560
6,363520,363776
6,596480,596736
6,3072,3328
6,239872,240128
6,290816,291072
6,542976,543232
6,579840,580096
6,689664,689920
6,500480,500736
6,525056,525312
6,687360,687616
6,221952,222208
6,640256,640512
6,383744,384000
6,396800,397056
6,501248,501504
6,341248,341504
6,370432,370688
6,187904,188160
6,508416,508672
6,517632,517888
6,236800,237056
6,446720,446976
6,340736,340992
6,455936,456192
6,381184,381440
6,516608,516864
6,682240,682496
6,614400,614656
6,229888,230144
6,360704,360960
6,318208,318464
6,184576,184832
6,522496,522752
6,289536,289792
6,304384,304640
6,502272,502528
6,554752,555008
6,244992,245248
6,363264,363520
6,315648,315904
6,458240,458496
6,373248,373504
6,409088,409344
6,476160,476416
6,442368,442624
6,238080,238336
6,546048,546304
6,431616,431872
6,606208,606464
6,342784,343040
6,676608,676864
6,298752,299008
6,13824,14080
6,682752,683008
6,333824,334080
6,333312,333568
6,615424,615680
6,559104,559360
6,503808,504064
6,360448,360704
6,610816,611072
6,518912,519168
6,290304,290560
6,257792,258048
6,359680,359936
6,544768,545024
6,570880,571136
6,542464,542720
6,578560,578816
6,679168,679424
6,601344,601600
6,531200,531456
6,291328,291584
6,320512,320768
6,372736,372992
6,456960,457216
6,385792,386048
6,348672,348928
6,188928,189184
6,600832,601088
6,237568,237824
6,580096,580352
6,636416,636672
6,635136,635392
6,498432,498688
6,250112,250368
6,602880,603136
6,342016,342272
6,460544,460800
6,604160,604416
6,203008,203264
6,597248,597504
6,254464,254720
6,220416,220672
6,572672,572928
6,620288,620544
6,380928,381184
6,364032,364288
6,691712,691968
6,364288,364544
6,657920,658176
6,495872,496128
6,370176,370432
6,673536,673792
6,641024,641280
6,230400,230656
6,675584,675840
6,251392,251648
6,364800,365056
6,229376,229632
6,263168,263424
6,672512,672768
6,456704,456960
6,623360,623616
6,675328,675584
6,462336,462592
6,416768,417024
6,690176,690432
6,563456,563712
6,666368,666624
6,296192,296448
6,545792,546048
6,410880,411136
6,488960,489216
6,334592,334848
6,315904,316160
6,235520,235776
6,320768,321024
6,482816,483072
6,256512,256768
6,215040,215296
6,392192,392448
6,389632,389888
6,619008,619264
6,308224,308480
6,259328,259584
6,519680,519936
6,226048,226304
6,357632,357888
6,412928,413184
6,480000,480256
6,196864,197120
6,518400,518656
6,350208,350464
6,266240,266496
6,343552,343808
6,290560,290816
6,422912,423168
6,621824,622080
6,220928,221184
6,453888,454144
6,548864,549120
6,228352,228608
6,387072,387328
6,691200,691456
6,369920,370176
6,278272,278528
6,394240,394496
6,369408,369664
6,579072,579328
6,539904,540160
6,393472,393728
6,681216,681472
6,255744,256000
6,392448,392704
6,361472,361728
6,641536,641792
6,603904,604160
6,216320,216576
6,221184,221440
6,565760,566016
6,446464,446720
6,9216,9472
6,626944,627200
6,517888,518144
6,284928,285184
6,612352,612608
6,219648,219904
6,272896,273152
6,421120,421376
6,469248,469504
6,657664,657920
6,375808,376064
6,227840,228096
6,322304,322560
6,537344,537600
6,437248,437504
6,278784,279040
6,384256,384512
6,609536,609792
6,695040,695296
6,539136,539392
6,413696,413952
6,225024,225280
6,335872,336128
6,10496,10752
6,533504,533760
6,496384,496640
6,292864,293120
6,616960,617216
6,356352,356608
6,303872,304128
6,385536,385792
6,648704,648960
6,420096,420352
6,556032,556288
6,260864,261120
6,438784,439040
6,267776,268032
6,554240,554496
6,584704,584960
6,158976,159232
6,568320,568576
6,212480,212736
6,434688,434944
6,228096,228352
6,359936,360192
6,515840,516096
6,260352,260608
6,601600,601856
6,393216,393472
6,539392,539648
6,629504,629760
6,314112,314368
6,541184,541440
6,446208,446464
6,431872,432128
6,398336,398592
6,452352,452608
6,481280,481536
6,551424,551680
6,227328,227584
6,467200,467456
6,214784,215040
6,423424,423680
6,600064,600320
6,352512,352768
6,567296,567552
6,605184,605440
6,451328,451584
6,253952,254208
6,460032,460288
6,433152,433408
6,680960,681216
6,499712,499968
6,427264,427520
6,530688,530944
6,366336,366592
6,297984,298240
6,452096,452352
6,557312,557568
6,435200,435456
6,584448,584704
6,602368,602624
6,501504,501760
6,599296,599552
6,513024,513280
6,264704,264960
6,390400,390656
6,639232,639488
6,408320,408576
6,509952,510208
6,205824,206080
6,427008,427264
6,670976,671232
6,471808,472064
6,345856,346112
6,622080,622336
6,274176,274432
6,486656,486912
6,195584,195840
6,371456,371712
6,388608,388864
6,571904,572160
6,286720,286976
6,478720,478976
6,443392,443648
6,307968,308224
6,267264,267520
6,238336,238592
6,573696,573952
6,411904,412160
6,544256,544512
6,341504,341760
6,562944,563200
6,599808,600064
6,432384,432640
6,626432,626688
6,647936,648192
6,689152,689408
6,557568,557824
6,403200,403456
6,687104,687360
6,307456,307712
6,532224,532480
6,619776,620032
6,286976,287232
6,220672,220928
6,505088,505344
6,429824,430080
6,678400,678656
6,188672,188928
6,497152,497408
6,93440,93696
6,528128,528384
6,497920,498176
6,388096,388352
6,269056,269312
6,287232,287488
6,439040,439296
6,465664,465920
6,361728,361984
6,456192,456448
6,195072,195328
6,595456,595712
6,428288,428544
6,341760,342016
6,494848,495104
6,648192,648448
6,403968,404224
6,677376,677632
6,422144,422400
6,472064,472320
6,597504,597760
6,250624,250880
6,692992,693248
6,302592,302848
6,564992,565248
6,556544,556800
6,393728,393984
6,300288,300544
6,511488,511744
6,440320,440576
6,582656,582912
6,412416,412672
6,484352,484608
6,204544,204800
6,299776,300032
6,378368,378624
6,198656,198912
6,693248,693504
6,603136,603392
6,312064,312320
6,228608,228864
6,420864,421120
6,476928,477184
6,654336,654592
6,340224,340480
6,628480,628736
6,356096,356352
6,366848,367104
6,673024,673280
6,557056,557312
6,400640,400896
6,566016,566272
6,211968,212224
6,612864,613120
6,478464,478720
6,252928,253184
6,422656,422912
6,625920,626176
6,258560,258816
6,682496,682752
6,396032,396288
6,559360,559616
6,329984,330240
6,434432,434688
6,684288,684544
6,370944,371200
6,223488,223744
6,623872,624128
6,524544,524800
6,347648,347904
6,365312,365568
6,536832,537088
6,619520,619776
6,379136,379392
6,194048,194304
6,2816,3072
6,500992,501248
6,404224,404480
6,473600,473856
6,291840,292096
6,449280,449536
6,615936,616192
6,391168,391424
6,545536,545792
6,476672,476928
6,387328,387584
6,215808,216064
6,303616,303872
6,677632,677888
6,680704,680960
6,88320,88576
6,219904,220160
6,249344,249600
6,374528,374784
6,613888,614144
6,3584,3840
6,475904,476160
6,283392,283648
6,332288,332544
6,259584,259840
6,485888,486144
6,490240,490496
6,547072,547328
6,581888,582144
6,457472,457728
6,470528,470784
6,185344,185600
6,585216,585472
6,289024,289280
6,652544,652800
6,544512,544768
6,8704,8960
6,503552,503808
6,537600,537856
6,12544,12800
6,234240,234496
6,528896,529152
6,564736,564992
6,294912,295168
6,495616,495872
6,429568,429824
6,285440,285696
6,653568,653824
6,245248,245504
6,226816,227072
6,203520,203776
6,349184,349440
6,631040,631296
6,678912,679168
6,434176,434432
6,445440,445696
6,306176,306432
6,543488,543744
6,655104,655360
6,512512,512768
6,264192,264448
6,190720,190976
6,488448,488704
6,279808,280064
6,442880,443136
6,190208,190464
6,90880,91136
6,346368,346624
6,402688,402944
6,688896,689152
6,678144,678400
6,435712,435968
6,480768,481024
6,675840,676096
6,385280,385536
6,120320,120576
6,635648,635904
6,498176,498432
6,640768,641024
6,563200,563456
6,288000,288256
6,241920,242176
6,506368,506624
6,454400,454656
7,25856,26112
7,12032,12288
7,123392,123648
7,577536,577792
7,608256,608512
7,9728,9984
7,550912,551168
7,25088,25344
7,289536,289792
7,40448,40704
7,42496,42752
7,6400,6656
7,460544,460800
7,659456,659712
7,15360,15616
7,17408,17664
7,194816,195072
7,35584,35840
7,120320,120576
7,539392,539648
7,679168,679424
7,293632,293888
7,305664,305920
7,468736,468992
7,16640,16896
7,5120,5376
7,12800,13056
7,20736,20992
7,13056,13312
7,14080,14336
7,122624,122880
7,133376,133632
7,19968,20224
7,457216,457472
7,14592,14848
7,495616,495872
7,19456,19712
7,23552,23808
7,657408,657664
7,561920,562176
7,481024,481280
7,396288,396544
7,319488,319744
7,444928,445184
7,197120,197376
7,298240,298496
7,657664,657920
7,243712,243968
7,445184,445440
7,284928,285184
7,468224,468480
7,17152,17408
7,24064,24320
7,263936,264192
7,16384,16640
7,459264,459520
7,132096,132352
7,254976,255232
7,352000,352256
7,318720,318976
7,612864,613120
7,375040,375296
7,234240,234496
7,379136,379392
7,18688,18944
7,538880,539136
7,53248,53504
7,124160,124416
7,609280,609536
7,11264,11520
7,23296,23552
7,11008,11264
7,94720,94976
7,158464,158720
7,4096,4352
7,521728,521984
7,3840,4096
7,178176,178432
7,471552,471808
7,598528,598784
7,220928,221184
7,12544,12800
7,365568,365824
7,318208,318464
7,168192,168448
7,655616,655872
7,536064,536320
7,502016,502272
7,34560,34816
7,656896,657152
7,123136,123392
7,317952,318208
7,583936,584192
7,561408,561664
7,8448,8704
7,180480,180736
7,371712,371968
7,437248,437504
7,339456,339712
7,215040,215296
7,580096,580352
7,6656,6912
7,583168,583424
7,511744,512000
7,519680,519936
7,129536,129792
7,65280,65536
7,572416,572672
7,2048,2304
7,108032,108288
7,17920,18176
7,130816,131072
7,18432,18688
7,539904,540160
7,117504,117760
7,124416,124672
7,41216,41472
7,527872,528128
7,145920,146176
7,115968,116224
7,442112,442368
7,21504,21760
7,111616,111872
7,8704,8960
7,470528,470784
7,395776,396032
7,2816,3072
7,1536,1792
7,15872,16128
7,483328,483584
7,455680,455936
7,350976,351232
7,458752,459008
7,84736,84992
7,47360,47616
7,415232,415488
7,119552,119808
7,673792,674048
7,602624,602880
7,24832,25088
7,371456,371712
7,469248,469504
7,303616,303872
7,462080,462336
7,467712,467968
7,414464,414720
7,565760,566016
7,305408,305664
7,277760,278016
7,279296,279552
7,246784,247040
7,26112,26368
7,1024,1280
7,22784,23040
7,310272,310528
7,414976,415232
7,13824,14080
7,509184,509440
7,172544,172800
7,293120,293376
7,87552,87808
7,539136,539392
7,414720,414976
7,84480,84736
7,278784,279040
7,589056,589312
7,501760,502016
7,83968,84224
7,584704,584960
7,86784,87040
7,582656,582912
7,24576,24832
7,123904,124160
7,55552,55808
7,614912,615168
7,218112,218368
7,564224,564480
7,119296,119552
7,580864,581120
7,472064,472320
7,535040,535296
7,447232,447488
7,456704,456960
7,81152,81408
7,506368,506624
7,244736,244992
7,393216,393472
7,559872,560128
7,768,1024
7,515072,515328
7,202496,202752
7,35072,35328
7,183552,183808
7,672512,672768
7,253440,253696
7,68352,68608
7,205312,205568
7,105984,106240
7,56320,56576
7,139776,140032
7,103424,103680
7,300288,300544
7,549888,550144
7,535296,535552
7,457728,457984
7,128000,128256
7,480000,480256
7,190976,191232
7,5632,5888
7,576512,576768
7,596480,596736
7,394240,394496
7,512000,512256
7,628992,629248
7,255488,255744
7,5888,6144
7,61696,61952
7,178688,178944
7,570368,570624
7,393728,393984
7,450816,451072
7,246528,246784
7,190720,190976
7,433408,433664
7,544512,544768
7,65536,65792
7,627712,627968
7,290048,290304
7,482048,482304
7,465152,465408
7,297472,297728
7,667392,667648
7,177664,177920
7,591616,591872
7,137728,137984
7,405504,405760
7,128768,129024
7,576000,576256
7,519936,520192
7,71680,71936
7,557056,557312
7,400384,400640
7,235520,235776
7,305920,306176
7,418048,418304
7,116480,116736
7,665088,665344
7,287488,287744
7,180224,180480
7,317184,317440
7,189696,189952
7,496384,496640
7,658176,658432
7,516608,516864
7,482304,482560
7,401920,402176
7,567552,567808
7,282624,282880
7,459776,460032
7,372480,372736
7,513792,514048
7,112896,113152
7,9216,9472
7,387328,387584
7,246272,246528
7,465920,466176
7,79872,80128
7,189184,189440
7,528896,529152
7,309504,309760
7,316928,317184
7,292864,293120
7,524800,525056
7,88064,88320
7,252416,252672
7,560128,560384
7,139008,139264
7,569344,569600
7,205568,205824
7,368384,368640
7,494336,494592
7,3328,3584
7,473088,473344
7,600064,600320
7,396544,396800
7,533248,533504
7,384512,384768
7,340480,340736
7,126720,126976
7,666368,666624
7,417280,417536
7,563200,563456
7,451328,451584
7,135680,135936
7,679936,680192
7,100352,100608
7,445440,445696
7,88320,88576
7,70400,70656
7,93696,93952
7,204288,204544
7,128512,128768
7,61184,61440
7,421632,421888
7,262656,262912
7,64256,64512
7,68608,68864
7,128256,128512
7,200192,200448
7,398336,398592
7,137472,137728
7,301312,301568
7,87040,87296
7,310016,310272
7,610048,610304
7,125440,125696
7,604928,605184
7,314624,314880
7,158720,158976
7,73216,73472
7,184320,184576
7,599552,599808
7,234752,235008
7,110080,110336
7,384256,384512
7,535552,535808
7,96256,96512
7,560896,561152
7,449536,449792
7,432384,432640
7,510208,510464
7,636672,636928
7,176896,177152
7,429312,429568
7,296192,296448
7,612352,612608
7,562944,563200
7,265728,265984
7,560384,560640
7,386304,386560
7,213504,213760
7,222976,223232
7,576768,577024
7,536576,536832
7,106496,106752
7,373248,373504
7,143360,143616
7,60928,61184
7,524288,524544
7,152576,152832
7,617216,617472
7,257536,257792
7,449024,449280
7,442880,443136
7,565248,565504
7,557568,557824
7,241920,242176
7,214528,214784
7,249088,249344
7,304384,304640
7,248320,248576
7,506112,506368
7,439552,439808
7,81664,81920
7,401664,401920
7,179712,179968
7,567808,568064
7,275968,276224
7,559360,559616
7,240384,240640
7,595456,595712
7,536832,537088
7,598016,598272
7,466176,466432
7,571648,571904
7,502528,502784
7,45056,45312
7,268544,268800
7,290816,291072
7,478464,478720
7,269568,269824
7,348928,349184
7,102400,102656
7,133120,133376
7,257024,257280
7,328448,328704
7,103168,103424
7,36864,37120
7,513280,513536
7,329216,329472
7,427008,427264
7,104192,104448
7,517632,517888
7,313088,313344
7,522752,523008
7,229888,230144
7,380672,380928
7,270592,270848
7,100096,100352
7,137216,137472
7,519168,519424
7,132352,132608
7,170496,170752
7,106240,106496
7,156160,156416
7,677888,678144
7,525568,525824
7,350720,350976
7,66560,66816
7,116992,117248
7,413696,413952
7,47616,47872
7,269312,269568
7,563456,563712
7,99840,100096
7,458496,458752
7,471808,472064
7,248832,249088
7,499456,499712
7,55296,55552
7,403456,403712
7,54528,54784
7,198656,198912
7,58368,58624
7,252160,252416
7,669440,669696
7,225792,226048
7,374272,374528
7,233728,233984
7,330752,331008
7,117760,118016
7,319232,319488
7,447488,447744
7,381952,382208
7,283648,283904
7,320768,321024
7,421120,421376
7,605952,606208
7,378880,379136
7,310528,310784
7,675840,676096
7,347904,348160
7,599040,599296
7,233216,233472
7,51712,51968
7,186368,186624
7,676096,676352
7,215296,215552
7,381696,381952
7,57600,57856
7,521984,522240
7,21248,21504
7,619264,619520
7,416000,416256
7,141824,142080
7,438272,438528
7,97536,97792
7,621056,621312
7,171520,171776
7,600320,600576
7,566272,566528
7,212224,212480
7,0,256
7,86272,86528
7,247296,247552
7,193024,193280
7,523520,523776
7,234496,234752
7,10496,10752
7,192256,192512
7,532480,532736
7,52480,52736
7,387840,388096
7,156416,156672
7,285696,285952
7,209152,209408
7,493056,493312
7,572672,572928
7,542464,542720
7,328704,328960
7,522240,522496
7,295680,295936
7,387584,387840
7,591360,591616
7,459008,459264
7,537600,537856
7,250880,251136
7,503552,503808
7,514304,514560
7,507136,507392
7,126464,126720
8,50432,50688
8,108800,109056
8,1536,1792
8,62464,62720
8,26112,26368
8,176128,176384
8,24576,24832
8,53504,53760
8,107264,107520
8,3584,3840
8,56064,56320
8,8704,8960
8,172032,172288
8,63488,63744
8,75520,75776
8,429824,430080
8,256,512
8,2304,2560
8,64512,64768
8,9216,9472
8,25856,26112
8,30720,30976
8,70400,70656
8,21504,21760
8,16128,16384
8,396800,397056
8,57856,58112
8,27136,27392
8,199680,199936
8,22784,23040
8,70912,71168
8,52992,53248
8,428800,429056
8,107520,107776
8,38400,38656
8,77568,77824
8,45568,45824
8,76288,76544
8,73728,73984
8,29440,29696
8,4352,4608
8,10496,10752
8,6656,6912
8,19456,19712
8,174592,174848
8,74240,74496
8,7424,7680
8,36864,37120
8,78080,78336
8,484864,485120
8,64256,64512
8,65536,65792
8,223488,223744
8,35584,35840
8,43008,43264
8,109312,109568
8,361472,361728
8,22016,22272
8,0,256
8,98304,98560
8,20992,21248
8,275968,276224
8,364800,365056
8,1792,2048
8,425984,426240
8,194560,194816
8,6912,7168
8,68352,68608
8,71680,71936
8,14848,15104
8,413952,414208
8,20224,20480
8,285184,285440
8,103936,104192
8,69120,69376
8,71936,72192
8,30208,30464
8,109568,109824
8,9984,10240
8,283904,284160
8,34560,34816
8,76800,77056
8,408064,408320
8,61440,61696
8,52480,52736
8,286208,286464
8,62976,63232
8,76544,76800
8,51712,51968
8,317952,318208
8,4096,4352
8,11008,11264
8,97280,97536
8,15616,15872
8,356352,356608
8,36352,36608
8,72704,72960
8,342784,343040
8,768,1024
8,265728,265984
8,312064,312320
8,177408,177664
8,28160,28416
8,198656,198912
8,120320,120576
8,283648,283904
8,71424,71680
8,164352,164608
8,109824,110080
8,370176,370432
8,12288,12544
8,385024,385280
8,7936,8192
8,195072,195328
8,266496,266752
8,175872,176128
8,354048,354304
8,97536,97792
8,171264,171520
8,219392,219648
8,433664,433920
8,27648,27904
8,164096,164352
8,105216,105472
8,310528,310784
8,397312,397568
8,174080,174336
8,327680,327936
8,56576,56832
8,105728,105984
8,46848,47104
8,57344,57600
8,19712,19968
8,311808,312064
8,169216,169472
8,66816,67072
8,33792,34048
8,251136,251392
8,259072,259328
8,61184,61440
8,32000,32256
8,254208,254464
8,346112,346368
8,108288,108544
8,40704,40960
8,104448,104704
8,429312,429568
8,282112,282368
8,474880,475136
8,246528,246784
8,103424,103680
8,254720,254976
8,196096,196352
8,107008,107264
8,195584,195840
8,5376,5632
8,47360,47616
8,273408,273664
8,238336,238592
8,484352,484608
8,197888,198144
8,106496,106752
8,3840,4096
8,275200,275456
8,482560,482816
8,308736,308992
8,38912,39168
8,28928,29184
8,48640,48896
8,471296,471552
8,226816,227072
8,398592,398848
8,35072,35328
8,383744,384000
8,366080,366336
8,174336,174592
8,41216,41472
8,272640,272896
8,340480,340736
8,350720,350976
8,391936,392192
8,73216,73472
8,69632,69888
8,394496,394752
8,192000,192256
8,6144,6400
8,176640,176896
8,267776,268032
8,426496,426752
8,107776,108032
8,39424,39680
8,164608,164864
8,345856,346112
8,227584,227840
8,38144,38400
8,198400,198656
8,73472,73728
8,11264,11520
8,348672,348928
8,389376,389632
8,65024,65280
8,274944,275200
8,422144,422400
8,309760,310016
8,346880,347136
8,365056,365312
8,335872,336128
8,102656,102912
8,392448,392704
8,323072,323328
8,342528,342784
8,97024,97280
8,196864,197120
8,389888,390144
8,12032,12288
8,175616,175872
8,393728,393984
8,31232,31488
8,346368,346624
8,172544,172800
8,253440,253696
8,308224,308480
8,75776,76032
8,13056,13312
8,200192,200448
8,112128,112384
8,381184,381440
8,402688,402944
8,373248,373504
8,48128,48384
8,75008,75264
8,203008,203264
8,257280,257536
8,165120,165376
8,242176,242432
8,169728,169984
8,453888,454144
8,300800,301056
8,383232,383488
8,291328,291584
8,332032,332288
8,366336,366592
8,388864,389120
8,307456,307712
8,246784,247040
8,201472,201728
8,214272,214528
8,96512,96768
8,270592,270848
8,188928,189184
8,235776,236032
8,434432,434688
8,400384,400640
8,201216,201472
8,427776,428032
8,254464,254720
8,302336,302592
8,32512,32768
8,279552,279808
8,354816,355072
8,173824,174080
8,379392,379648
8,307712,307968
8,256768,257024
8,328192,328448
8,468736,468992
8,54784,55040
8,331008,331264
8,189952,190208
8,214784,215040
8,328960,329216
8,311296,311552
8,420352,420608
8,479232,479488
8,261632,261888
8,247040,247296
8,305152,305408
8,327168,327424
8,342272,342528
8,14592,14848
8,74496,74752
8,197120,197376
8,44800,45056
8,301824,302080
8,77056,77312
8,200704,200960
8,432128,432384
8,98816,99072
8,259584,259840
8,336640,336896
8,236800,237056
8,11776,12032
8,227072,227328
8,212736,212992
8,173312,173568
8,468480,468736
8,289792,290048
8,190208,190464
8,312832,313088
8,264704,264960
8,265216,265472
8,380928,381184
8,402176,402432
8,282880,283136
8,260864,261120
8,359936,360192
8,232448,232704
8,361216,361472
8,253184,253440
8,290560,290816
8,468992,469248
8,161792,162048
8,102144,102400
8,240896,241152
8,467456,467712
8,308480,308736
8,174848,175104
8,368896,369152
8,310272,310528
8,349440,349696
8,315648,315904
8,372480,372736
8,162304,162560
8,256256,256512
8,269312,269568
8,478464,478720
8,252160,252416
8,274432,274688
8,370944,371200
8,307968,308224
8,478976,479232
8,471552,471808
8,391424,391680
8,304896,305152
8,255232,255488
8,454400,454656
8,160768,161024
8,319232,319488
8,409088,409344
8,288256,288512
8,406016,406272
8,304640,304896
8,276224,276480
8,372224,372480
8,347136,347392
8,433152,433408
8,483328,483584
8,127488,127744
8,254976,255232
8,161024,161280
8,369664,369920
8,297984,298240
8,189184,189440
8,281088,281344
8,249600,249856
8,223232,223488
8,170496,170752
8,161536,161792
8,301056,301312
8,307200,307456
8,399360,399616
8,362240,362496
8,407808,408064
8,466432,466688
8,165632,165888
8,210432,210688
8,115200,115456
8,341504,341760
8,220416,220672
8,471808,472064
8,191488,191744
8,264448,264704
8,419840,420096
8,112384,112640
8,199168,199424
8,200448,200704
8,474368,474624
8,285440,285696
8,449792,450048
8,203776,204032
8,205056,205312
8,157696,157952
8,3072,3328
8,193536,193792
8,184064,184320
8,337152,337408
8,187136,187392
8,325888,326144
8,276736,276992
8,304384,304640
8,244480,244736
8,266752,267008
8,157184,157440
8,223744,224000
8,204288,204544
8,247552,247808
8,320768,321024
8,294912,295168
8,72192,72448
8,397568,397824
8,236288,236544
8,308992,309248
8,340736,340992
8,479488,479744
8,386816,387072
8,250880,251136
8,393472,393728
8,418304,418560
8,194048,194304
8,327424,327680
8,265472,265728
8,218880,219136
8,369152,369408
8,163584,163840
8,304128,304384
8,158208,158464
8,199936,200192
8,469248,469504
8,334336,334592
8,251648,251904
8,266240,266496
8,380160,380416
8,259328,259584
8,272128,272384
8,460800,461056
8,203264,203520
8,206848,207104
8,231168,231424
8,319488,319744
8,170240,170496
8,193024,193280
8,251904,252160
8,161280,161536
8,330752,331008
8,142336,142592
8,310784,311040
8,298752,299008
8,355328,355584
8,311040,311296
8,113920,114176
8,244992,245248
8,192512,192768
8,16384,16640
8,258560,258816
8,329728,329984
8,288768,289024
8,252672,252928
8,312576,312832
